"Time","Vm1:Measured voltage:1","Vm1:Measured voltage:2","Vm1:Measured voltage:3","Divide18:1","Divide18:2","Divide18:3","Am1:Measured current"
0,100,100,100,0.083333333333333426,0.083333333333333426,0.083333333333333426,0
0.0009999999999999998,99.968224307845574,99.968224307845489,99.968224307845659,0.10476481303863092,0.10476481303863015,0.10476481303863168,-1.2977230667662325
0.0019999999999999996,99.915412559308265,99.915412559308322,99.915412559308365,0.15082741118892598,0.15082741118892645,0.15082741118892681,-1.495171931229478
0.0029999999999999996,99.830049180389025,99.830049180389096,99.830049180389594,0.22068616299814398,0.22068616299814453,0.22068616299814842,-1.5932093224483923
0.0039999999999999992,99.707577657524453,99.707577657524624,99.70757765752515,0.31086311356217627,0.31086311356217744,0.3108631135621811,-1.5350114907499011
0.0049999999999999992,99.55704782997698,99.557047829976938,99.557047829977748,0.4119759775917215,0.41197597759172122,0.41197597759172605,-1.3677426070352683
0.0059999999999999993,99.398723591291684,99.398723591291443,99.398723591291983,0.51341736319512699,0.51341736319512576,0.51341736319512843,-1.0844048670443216
0.0069999999999999993,99.268962377463126,99.268962377462501,99.268962377462842,0.6054338522307452,0.60543385223074275,0.60543385223074409,-0.68668209698914717
0.0079999999999999984,99.208667292180124,99.208667292178944,99.208667292178092,0.67883919531533454,0.67883919531533077,0.67883919531532799,-0.21031802854886705
0.0089999999999999993,99.254093065206646,99.254093065205637,99.254093065205069,0.72821924132338001,0.72821924132339755,0.72821924132340743,0.30508570682207725
0.0099999999999999985,99.410900675041177,99.410900675040452,99.41090067503913,0.74838973124048636,0.74838973124049912,0.74838973124052233,0.7214829901641473
0.010999999999999999,99.638818776133292,99.638818776133334,99.638818776132766,0.73627168177111979,0.73627168177111912,0.73627168177112901,0.8927115856995651
0.011999999999999999,99.861157545793787,99.861157545793802,99.861157545793304,0.69260914337813395,0.69260914337813373,0.69260914337814217,0.75868941213364183
0.012999999999999998,100.00859976607552,100.00859976607515,100.00859976607458,0.62207007679840565,0.62207007679841164,0.62207007679842086,0.35625530602928102
0.013999999999999999,100.04305072999801,100.04305072999779,100.04305072999755,0.53018937167253233,0.53018937167253133,0.53018937167253011,-0.26158456609797565
0.014999999999999998,99.973074030544922,99.973074030544325,99.973074030544069,0.42696198337281627,0.42696198337281288,0.42696198337281138,-0.92514559345129399
0.015999999999999997,99.844421404027045,99.844421404026633,99.844421404026761,0.32450593587719723,0.32450593587719445,0.32450593587719528,-1.4694118215350374
0.016999999999999998,99.707499067316803,99.70749906731659,99.707499067316505,0.23351680407022038,0.23351680407021874,0.23351680407021808,-1.8521752443671122
0.017999999999999999,99.590940804298242,99.5909408042981,99.59094080429773,0.16293898149867134,0.16293898149867014,0.16293898149866703,-2.1126759699772686
0.018999999999999996,99.498537886079973,99.498537886079646,99.498537886079149,0.11924854355093731,0.11924854355093442,0.11924854355093002,-2.3180513070663196
0.019999999999999997,99.417790460468169,99.417790460467685,99.417790460467089,0.10456621294418635,0.104566212944182,0.10456621294417662,-2.5853395474974969
0.020999999999999998,99.327028635691207,99.327028635690766,99.327028635690027,0.11740073922307118,0.11740073922306726,0.11740073922306068,-2.9491626864170422
0.021999999999999999,99.199822319679456,99.199822319679129,99.199822319678603,0.15538494816393386,0.15538494816393109,0.15538494816392662,-3.2970421408465569
0.022999999999999996,99.01206006381895,99.012060063818765,99.012060063817941,0.21439906045227114,0.21439906045226967,0.21439906045226312,-3.4718989371710895
0.023999999999999997,98.755813449945435,98.755813449944966,98.755813449943886,0.29150264592259173,0.29150264592258834,0.29150264592258057,-3.2663254627611522
0.024999999999999998,98.462067120207593,98.46206712020691,98.462067120205816,0.38354400555321905,0.38354400555321477,0.38354400555320795,-2.5839854074522317
0.025999999999999995,98.205910671920833,98.205910671919597,98.205910671918062,0.48478022820189115,0.48478022820188466,0.48478022820187661,-1.4891885792687716
0.026999999999999996,98.08995227207447,98.089952272073674,98.089952272072523,0.58542108251015368,0.58542108251015035,0.58542108251014546,-0.1841949794299822
0.027999999999999997,98.203342598958045,98.203342598957761,98.203342598956723,0.67359899771137377,0.67359899771137866,0.67359899771139631,1.045661574483411
0.028999999999999995,98.566754669877312,98.566754669877369,98.566754669876815,0.737475639399787,0.737475639399786,0.73747563939979577,1.9356347378196592
0.029999999999999995,99.104965781461587,99.104965781461658,99.104965781461559,0.76884617475149297,0.76884617475149175,0.76884617475149353,2.3108154879127403
0.030999999999999996,99.665599634219149,99.665599634218935,99.665599634218694,0.76085537752272414,0.76085537752272792,0.76085537752273213,2.0518709269749911
0.031999999999999994,100.08965822635957,100.08965822635936,100.08965822635905,0.71590329982426493,0.71590329982426859,0.71590329982427392,1.303987850191906
0.032999999999999995,100.2889318770206,100.28893187702074,100.2889318770205,0.63911268611060734,0.63911268611060501,0.63911268611060901,0.26264462971945512
0.033999999999999996,100.26537894556677,100.26537894556688,100.2653789455664,0.54009504076743309,0.54009504076743364,0.54009504076743142,-0.81259748330792103
0.034999999999999996,100.09287298516948,100.09287298517012,100.09287298516981,0.43037577490733808,0.43037577490734169,0.43037577490733991,-1.7425249587874099
0.035999999999999997,99.862787381980169,99.862787381980851,99.862787381980226,0.32208074159608424,0.32208074159608885,0.32208074159608463,-2.4296601005133085
0.036999999999999998,99.645914230972394,99.645914230972778,99.645914230972437,0.22699422263618313,0.22699422263618613,0.22699422263618346,-2.8753693244149492
0.037999999999999992,99.474169010980034,99.474169010980162,99.474169010979523,0.15317963322760483,0.15317963322760592,0.15317963322760048,-3.1826778126714443
0.038999999999999993,99.347246993280379,99.347246993280464,99.347246993279896,0.10644382089268292,0.10644382089268369,0.10644382089267856,-3.4109194431476055
0.039999999999999994,99.245967312209544,99.245967312209743,99.24596731220926,0.089813119801084071,0.089813119801085903,0.089813119801081462,-3.5996643351637827
0.040999999999999995,99.141626094416921,99.14162609441712,99.141626094416566,0.10183910035961574,0.10183910035961755,0.10183910035961252,-3.7594099483031362
0.041999999999999996,99.00521119450228,99.005211194502124,99.005211194501641,0.14197823319265049,0.14197823319264913,0.14197823319264496,-3.7806359942534993
0.042999999999999997,98.814278950637174,98.814278950636918,98.814278950636094,0.20649784916171593,0.20649784916171388,0.20649784916170727,-3.5580644786209099
0.043999999999999997,98.57177083900531,98.571770839005268,98.57177083900433,0.29049139644872241,0.29049139644872207,0.29049139644871536,-2.9902114868728629
0.044999999999999991,98.320250483764127,98.320250483764539,98.320250483763076,0.38806921248109838,0.38806921248110093,0.38806921248109183,-2.0386582533400235
0.045999999999999992,98.148662123382564,98.148662123383289,98.148662123381456,0.49287834156166699,0.49287834156167076,0.49287834156166127,-0.73392679565390395
0.046999999999999993,98.168494102753598,98.16849410275475,98.168494102752263,0.59363525186365129,0.59363525186363264,0.59363525186367305,0.69062965373856633
0.047999999999999994,98.462922703097433,98.462922703098883,98.462922703096424,0.68016479987578338,0.68016479987575862,0.68016479987580059,1.9989285100670808
0.048999999999999995,99.039288123575048,99.0392881235761,99.039288123573783,0.74179511105662066,0.74179511105660223,0.74179511105664298,2.9065059294969942
0.049999999999999996,99.789940012008444,99.789940012009637,99.789940012007051,0.7692976645632873,0.7692976645632662,0.76929766456331206,3.1507475618546392
0.050999999999999997,100.52546916190788,100.52546916190947,100.52546916190745,0.76014087649600837,0.7601408764959805,0.7601408764960158,2.6874938212573589
0.051999999999999991,101.05557416763186,101.05557416763303,101.05557416763065,0.71379213786790274,0.71379213786788298,0.71379213786792328,1.5894140066064231
0.052999999999999992,101.27039706343987,101.27039706344129,101.27039706343848,0.63551221745785924,0.63551221745783626,0.63551221745788178,0.12616186322349776
0.053999999999999992,101.18539494199614,101.18539494199777,101.18539494199521,0.53436075900099744,0.53436075900100488,0.53436075900099311,-1.3692390682170421
0.054999999999999993,100.91152791791673,100.91152791791839,100.91152791791623,0.42251053784219844,0.42251053784220799,0.42251053784219561,-2.5921091391101312
0.055999999999999994,100.58405127378784,100.58405127378968,100.58405127378744,0.31179771619477531,0.31179771619478797,0.31179771619477259,-3.392914640893153
0.056999999999999995,100.30247543425241,100.3024754342545,100.30247543425219,0.21515206328425715,0.2151520632842735,0.21515206328425537,-3.7181380670112198
0.057999999999999989,100.10462010539747,100.10462010539958,100.104620105397,0.1421762289851046,0.14217622898512264,0.14217622898510057,-3.6696815642634197
0.05899999999999999,99.978119888755941,99.978119888758116,99.978119888755884,0.098950296165333101,0.098950296165352697,0.098950296165332588,-3.3960398613245557
0.059999999999999991,99.889711552732393,99.88971155273434,99.889711552732209,0.08655697518800505,0.086556975188022856,0.086556975188003357,-3.0963389921827673
0.060999999999999992,99.805940265799904,99.80594026580205,99.805940265799734,0.10342289706173174,0.10342289706175102,0.1034228970617302,-2.8724180547075773
0.061999999999999993,99.702942456061308,99.702942456063525,99.702942456060924,0.14802367572253727,0.1480236757225562,0.148023675722534,-2.6714960071258651
0.062999999999999987,99.565145516953393,99.565145516955766,99.565145516953535,0.21516297651704844,0.21516297651706714,0.21516297651704958,-2.4434464185469729
0.063999999999999987,99.392785398897047,99.392785398899434,99.392785398897232,0.29968862154331166,0.29968862154332848,0.29968862154331294,-2.0755442471526351
0.064999999999999988,99.211387243150611,99.21138724315297,99.211387243150298,0.39559319750330396,0.39559319750331834,0.39559319750330207,-1.5029425625161661
0.065999999999999989,99.076266577646479,99.076266577648724,99.07626657764547,0.49730577650538327,0.49730577650539465,0.49730577650537816,-0.6986924670863397
0.06699999999999999,99.056076174528044,99.056076174530006,99.056076174526893,0.59482154707092283,0.5948215470708913,0.59482154707094137,0.19215453383658376
0.067999999999999991,99.200639665833606,99.200639665835425,99.200639665832199,0.67691071792736701,0.67691071792733626,0.67691071792739088,0.9822394897401544
0.068999999999999992,99.509051872764559,99.509051872766904,99.509051872764061,0.73395895420662394,0.73395895420658308,0.7339589542066326,1.5144833225689613
0.069999999999999993,99.915222943379106,99.915222943380058,99.915222943377088,0.75816391339786604,0.75816391339784939,0.75816391339790157,1.6448637023048454
0.070999999999999994,100.3084640429685,100.30846404296973,100.30846404296719,0.74737519691897014,0.7473751969189486,0.7473751969189929,1.3600803879558354
0.071999999999999995,100.58051535350135,100.58051535350263,100.58051535349995,0.70147953240566763,0.70147953240564598,0.70147953240569139,0.7036617145948183
0.072999999999999995,100.67054711413802,100.67054711413877,100.67054711413623,0.62571160288140482,0.62571160288140759,0.62571160288139815,-0.1677300661102592
0.073999999999999996,100.59078129072358,100.59078129072456,100.59078129072225,0.5297547285588482,0.52975472855885275,0.52975472855884198,-1.0205465170090191
0.074999999999999983,100.40431035418904,100.40431035418993,100.40431035418759,0.42250215599194374,0.4225021559919489,0.42250215599193541,-1.7398988585837776
0.075999999999999984,100.1902904136345,100.1902904136352,100.19029041363287,0.31725568529509912,0.3172556852951039,0.31725568529508796,-2.2021757129800843
0.076999999999999985,100.00348546353476,100.00348546353553,100.00348546353285,0.22528820932426377,0.22528820932426971,0.22528820932424903,-2.4147375170383834
0.077999999999999986,99.864416776288678,99.864416776289175,99.864416776286404,0.15476924402980419,0.15476924402980841,0.15476924402978495,-2.4932482614655407
0.078999999999999987,99.765178974215331,99.765178974215729,99.765178974212731,0.11167552203488793,0.11167552203489148,0.11167552203486478,-2.5372658961681731
0.079999999999999988,99.685337339497607,99.685337339498133,99.685337339494936,0.097333916381716235,0.097333916381720995,0.097333916381692032,-2.6614257255884555
0.080999999999999989,99.600456892408133,99.600456892408786,99.600456892405333,0.11188358216496011,0.11188358216496594,0.11188358216493514,-2.8570430455351032
0.08199999999999999,99.484198551767179,99.484198551767804,99.48419855176428,0.1516949329037193,0.15169493290372463,0.15169493290369457,-3.0688435590112344
0.08299999999999999,99.314395572403271,99.314395572404024,99.314395572400457,0.21378165457296791,0.21378165457297388,0.21378165457294565,-3.1336401458556216
0.083999999999999991,99.08620454598109,99.086204545982113,99.086204545978703,0.29429097064937215,0.29429097064937948,0.29429097064935517,-2.8821430678680566
0.084999999999999992,98.826780473570381,98.826780473570892,98.826780473567453,0.38770627970148241,0.38770627970148563,0.38770627970146432,-2.2496982200867679
0.085999999999999993,98.607818029870941,98.60781802987178,98.607818029868255,0.48904704601765714,0.48904704601766147,0.48904704601764321,-1.2385035146878556
0.086999999999999994,98.525464845418142,98.525464845419307,98.525464845415982,0.58822090768755775,0.58822090768756263,0.58822090768754864,-0.018195091691536991
0.087999999999999995,98.662481371698888,98.662481371700167,98.662481371697083,0.67323896539066852,0.67323896539064687,0.67323896539069916,1.128551049288506
0.088999999999999982,99.038857096024913,99.038857096026305,99.038857096023193,0.73415435431222997,0.73415435431220555,0.73415435431226006,1.9899414343188506
0.089999999999999983,99.587133799289219,99.587133799290811,99.587133799287201,0.76315858546735305,0.76315858546732496,0.76315858546738879,2.3775016447669102
0.090999999999999984,100.16389364410031,100.16389364410043,100.16389364409638,0.75444190087237328,0.75444190087237128,0.75444190087244223,2.1546896174853405
0.091999999999999985,100.61144280338459,100.61144280338499,100.61144280338107,0.71008703897891023,0.71008703897890346,0.71008703897897008,1.4444106294492607
0.092999999999999985,100.83889001503925,100.83889001504001,100.83889001503567,0.63502736743635979,0.63502736743634758,0.63502736743641786,0.41446182730286019
0.093999999999999986,100.83749581296082,100.83749581296132,100.83749581295676,0.5366910286957074,0.53669102869570962,0.53669102869568863,-0.71417940060322227
0.094999999999999987,100.67600411348096,100.67600411348189,100.67600411347713,0.42742631292315719,0.42742631292316258,0.42742631292313549,-1.6939558769771947
0.095999999999999988,100.45053313800757,100.45053313800867,100.45053313800412,0.31894971266855487,0.31894971266856231,0.31894971266853145,-2.4098658295604829
0.096999999999999989,100.23806166679934,100.23806166680026,100.23806166679572,0.22395641726632884,0.22395641726633597,0.22395641726630078,-2.8234026116594606
0.09799999999999999,100.07421359828363,100.07421359828454,100.07421359827974,0.15077778304956035,0.15077778304956807,0.15077778304952733,-3.0354243211739012
0.098999999999999991,99.957338757830783,99.957338757831778,99.957338757826662,0.10531604318675343,0.10531604318676233,0.10531604318671654,-3.1332572379498709
0.099999999999999992,99.866161304305393,99.866161304306559,99.86616130430167,0.089570657711077084,0.089570657711087701,0.089570657711043139,-3.2111328293688643
0.10099999999999999,99.773557619431955,99.773557619432964,99.773557619428189,0.10311465673949241,0.10311465673950147,0.10311465673945855,-3.2904041897229552
0.10199999999999999,99.652401028255568,99.652401028256691,99.652401028251816,0.14396251965912019,0.14396251965912982,0.14396251965908796,-3.299097141536012
0.10299999999999998,99.482834814893224,99.482834814893849,99.482834814888918,0.20817820638871071,0.2081782063887157,0.20817820638867646,-3.1334517641610855
0.10399999999999998,99.265285590879969,99.265285590880282,99.265285590875337,0.29171425951442753,0.29171425951442975,0.2917142595143945,-2.6861871287896522
0.10499999999999998,99.035850251442184,99.035850251442582,99.03585025143758,0.38904063476292816,0.38904063476293066,0.3890406347628998,-1.9095252191595913
0.10599999999999998,98.866227921215156,98.866227921215739,98.866227921211262,0.49300732726345919,0.49300732726346214,0.49300732726343921,-0.83260264435893694
0.10699999999999998,98.848603211520185,98.848603211520611,98.848603211515879,0.59249026509418068,0.5924902650941738,0.59249026509425007,0.34225820846055788
0.10799999999999998,99.0505131304988,99.050513130499013,99.050513130493911,0.67725624948357133,0.67725624948356777,0.67725624948365415,1.4156016806655241
0.10899999999999999,99.476784745330704,99.476784745331045,99.476784745324807,0.73608995590761406,0.73608995590760817,0.73608995590771698,2.1421596388552664
0.10999999999999999,100.04437147930415,100.0443714793049,100.04437147929914,0.76318035235923276,0.76318035235921955,0.76318035235932102,2.380485972140741
0.11099999999999999,100.6054658408939,100.60546584089498,100.60546584088911,0.75342991456396979,0.75342991456395103,0.75342991456405328,2.0283998939822787
0.11199999999999999,101.0074288005039,101.00742880050466,101.00742880049879,0.70747852937041966,0.70747852937040701,0.70747852937050615,1.1648217231164004
0.11299999999999999,101.16327422376324,101.16327422376344,101.16327422375764,0.63077866261463544,0.63077866261463222,0.6307786626147257,0.011711147100510466
0.11399999999999999,101.0848341308788,101.08483413087872,101.08483413087264,0.53180679620359728,0.53180679620359694,0.53180679620356874,-1.1796176368781222
0.11499999999999999,100.85598639252173,100.85598639252153,100.85598639251579,0.42242967696514455,0.42242967696514339,0.42242967696511052,-2.1682231577872608
0.11599999999999998,100.58312022222351,100.58312022222319,100.58312022221696,0.31437448778399513,0.31437448778399291,0.3143744877839505,-2.8373243179346885
0.11699999999999998,100.34318520701987,100.34318520701953,100.34318520701321,0.21981615921004335,0.21981615921004072,0.21981615920999154,-3.1558043592268206
0.11799999999999998,100.16761260492464,100.1676126049244,100.16761260491785,0.14789010693314594,0.14789010693314389,0.14789010693308816,-3.2107145788112748
0.11899999999999998,100.04870311033724,100.04870311033683,100.04870311033027,0.10424747774175112,0.10424747774174743,0.10424747774168865,-3.1336867143001568
0.11999999999999998,99.959726066905318,99.959726066904793,99.959726066898185,0.089862978450894956,0.089862978450890169,0.089862978450830008,-3.0597162939189531
0.12099999999999998,99.872347355609094,99.872347355608298,99.872347355601718,0.10550866629870939,0.10550866629870227,0.10550866629864335,-3.0080782981816077
0.12199999999999998,99.760270265737248,99.760270265736764,99.76027026573,0.14788177306028039,0.14788177306027628,0.14788177306021849,-2.9616584398302668
0.12299999999999998,99.604995319127013,99.604995319126857,99.604995319119666,0.21276889156287804,0.21276889156287679,0.21276889156281997,-2.8139991523431322
0.12399999999999999,99.406424411931155,99.406424411931013,99.406424411923965,0.29636422472415669,0.29636422472415569,0.29636422472410578,-2.4410856923246262
0.12499999999999999,99.192605746098536,99.192605746098792,99.192605746091374,0.3921884627899917,0.39218846278999325,0.39218846278994779,-1.7928185050470749
