"Time","Vm1:Measured voltage:1","Vm1:Measured voltage:2","Vm1:Measured voltage:3","Divide18:1","Divide18:2","Divide18:3","Am1:Measured current"
0,100,100,100,0.083333333333333426,0.083333333333333426,0.083333333333333426,0
0.0009999999999999998,99.937806806499367,99.937806806499239,99.937806806499339,0.11065004473512362,0.11065004473512248,0.11065004473512337,-2.5239758567073807
0.0019999999999999996,99.829037208917711,99.82903720891764,99.829037208917725,0.1554682859611273,0.15546828596112669,0.15546828596112741,-2.9403010930825562
0.0029999999999999996,99.657026622402782,99.65702662240281,99.657026622403038,0.2223923194854128,0.22239231948541302,0.2223923194854148,-3.1199144298970776
0.0039999999999999992,99.411958261202216,99.411958261201931,99.411958261201931,0.30901272722300555,0.3090127272230036,0.3090127272230036,-3.0301140122921844
0.0049999999999999992,99.106730903184001,99.106730903183774,99.106730903183887,0.40764839401669589,0.4076483940166945,0.40764839401669517,-2.67618112628046
0.0059999999999999993,98.783641616438729,98.783641616438629,98.783641616438146,0.50712352157241758,0.50712352157241714,0.50712352157241469,-2.0923642165203353
0.0069999999999999993,98.511292487245939,98.511292487245825,98.511292487245527,0.59706611057523773,0.59706611057523729,0.59706611057523606,-1.2839710043433747
0.0079999999999999984,98.376308205807959,98.376308205807732,98.376308205808513,0.67058051976775535,0.67058051976775457,0.67058051976775723,-0.27983553590411692
0.0089999999999999993,98.451771791996023,98.451771791996009,98.451771791996705,0.72183722308688536,0.72183722308688558,0.72183722308687348,0.78961985980333693
0.0099999999999999985,98.753260261591393,98.753260261591066,98.753260261591763,0.74537017785257609,0.74537017785258186,0.74537017785256954,1.6562661849792808
0.010999999999999999,99.204286726499475,99.204286726499703,99.204286726500769,0.7380787240550053,0.7380787240550013,0.73807872405498265,2.0554258980441453
0.011999999999999999,99.66266132015808,99.662661320158421,99.662661320160183,0.69936347539354082,0.69936347539353494,0.69936347539350496,1.8341506698872259
0.012999999999999998,99.979535111272369,99.979535111272611,99.979535111274927,0.63198407914568377,0.63198407914567978,0.63198407914564203,1.0125725497033624
0.013999999999999999,100.07146371690094,100.07146371690152,100.07146371690401,0.54227934720910331,0.54227934720910598,0.54227934720911741,-0.21833193359769965
0.014999999999999998,99.950967800236498,99.950967800236469,99.950967800238942,0.44016289286794902,0.44016289286794885,0.44016289286796267,-1.5658983190159432
0.015999999999999997,99.701923660213026,99.701923660213382,99.701923660216011,0.33810739532179196,0.33810739532179429,0.33810739532181172,-2.7425107521137857
0.016999999999999998,99.421870668163805,99.421870668164019,99.421870668166605,0.24880557405776596,0.24880557405776757,0.24880557405778711,-3.6125220185109113
0.017999999999999999,99.168874255944871,99.168874255944857,99.168874255947159,0.18204139603019567,0.18204139603019553,0.18204139603021452,-4.2205146855025397
0.018999999999999996,98.95242977851666,98.952429778516532,98.952429778519019,0.14275640593000097,0.14275640592999986,0.14275640593002142,-4.7360463694712145
0.019999999999999997,98.747926490458823,98.747926490458823,98.747926490461339,0.12923911609548439,0.12923911609548439,0.12923911609550656,-5.3916930493491906
0.020999999999999998,98.515552285768251,98.515552285768393,98.51555228577098,0.13854976240033395,0.13854976240033517,0.1385497624003578,-6.2148413739938198
0.021999999999999999,98.213482407179399,98.213482407179626,98.213482407182468,0.16493306294603435,0.16493306294603627,0.16493306294606044,-7.0053475797933071
0.022999999999999996,97.809970343508198,97.809970343508596,97.809970343511637,0.20652864057597747,0.20652864057598072,0.2065286405760054,-7.3549288046948966
0.023999999999999997,97.302920929584616,97.302920929585284,97.302920929588097,0.26481498002235326,0.26481498002235832,0.26481498002237958,-6.8493898320837632
0.024999999999999998,96.744287335890817,96.744287335891116,96.744287335894541,0.34321581903397141,0.34321581903397341,0.34321581903399667,-5.3369516569530422
0.025999999999999995,96.258684717239817,96.258684717240158,96.258684717243213,0.44171356218521984,0.44171356218522184,0.44171356218523955,-2.9617999918167062
0.026999999999999996,96.03777813618305,96.037778136182865,96.037778136185381,0.5519504833381299,0.55195048333812902,0.55195048333814078,-0.18561060406506336
0.027999999999999997,96.269747506471276,96.269747506470523,96.269747506472939,0.6587262797537432,0.65872627975375619,0.65872627975371456,2.4203318280116091
0.028999999999999995,97.022247818496822,97.022247818495856,97.022247818498698,0.74337236834034703,0.74337236834036435,0.74337236834031328,4.2873670851920371
0.029999999999999995,98.154220121961089,98.154220121960194,98.154220121963633,0.79022865264942721,0.79022865264944353,0.7902286526493808,4.9981033509558435
0.030999999999999996,99.340799533469479,99.340799533468768,99.340799533471881,0.79229868210494048,0.79229868210495336,0.79229868210489718,4.4486168617450383
0.031999999999999994,100.23757281646414,100.23757281646458,100.2375728164677,0.74927917686259748,0.74927917686258982,0.74927917686253531,2.8372184635340254
0.032999999999999995,100.64309653840922,100.64309653841042,100.64309653841325,0.66921588702357759,0.66921588702355783,0.66921588702351087,0.64140716898139161
0.033999999999999996,100.5675594980537,100.56755949805431,100.56755949805753,0.56293248521376194,0.5629324852137646,0.56293248521377859,-1.6489372726489364
0.034999999999999996,100.17589886799975,100.17589886800046,100.17589886800342,0.4458856822511294,0.44588568225113334,0.44588568225114972,-3.5968813274422295
0.035999999999999997,99.670647065506415,99.670647065507239,99.670647065510607,0.33126083057667888,0.33126083057668443,0.33126083057670702,-5.0583489940052759
0.036999999999999998,99.20049422147487,99.200494221475765,99.200494221478863,0.23381534783862809,0.233815347838635,0.23381534783865893,-6.0141024931496014
0.037999999999999992,98.826700416973893,98.826700416974859,98.826700416978312,0.16012754918002087,0.16012754918002908,0.16012754918005842,-6.6754538031838777
0.038999999999999993,98.543961357255469,98.543961357256634,98.543961357260287,0.11370907631092286,0.11370907631093334,0.11370907631096619,-7.1884480207369714
0.039999999999999994,98.315031757647859,98.315031757649109,98.315031757652733,0.094799939984271442,0.09479993998428296,0.094799939984316323,-7.620474258412802
0.040999999999999995,98.087275611775226,98.087275611776704,98.087275611780271,0.10258152216753937,0.10258152216755288,0.10258152216758552,-7.8985986383973152
0.041999999999999996,97.808344866533972,97.808344866535137,97.808344866538377,0.13515790395136087,0.13515790395137117,0.13515790395139984,-7.865942498003248
0.042999999999999997,97.437902012514456,97.437902012515593,97.437902012518848,0.18939198264283408,0.18939198264284354,0.1893919826428706,-7.3170809679016751
0.043999999999999997,96.982743459305453,96.982743459307002,96.982743459310583,0.26356527016781833,0.2635652701678301,0.2635652701678573,-6.0437132795445105
0.044999999999999991,96.517869806817714,96.517869806819903,96.517869806823114,0.35594810354435924,0.35594810354437384,0.35594810354439527,-3.9768780352904276
0.045999999999999992,96.204789527503934,96.204789527506222,96.204789527509263,0.46243201588899591,0.46243201588900873,0.46243201588902572,-1.2502945951018383
0.046999999999999993,96.262500387474674,96.262500387477075,96.26250038747996,0.57300732873900284,0.57300732873896365,0.57300732873891647,1.7483329358818693
0.047999999999999994,96.879792924244413,96.879792924246814,96.879792924250069,0.67379558963910646,0.67379558963906494,0.67379558963900865,4.4540774770615927
0.048999999999999995,98.087376163244159,98.087376163246901,98.087376163249857,0.74974106506606031,0.74974106506601146,0.74974106506595872,6.2927467325137503
0.049999999999999996,99.674811688696309,99.674811688698895,99.674811688701581,0.78965659057643933,0.78965659057639292,0.78965659057634474,6.8089272629010402
0.050999999999999997,101.24065910601006,101.24065910601297,101.24065910601571,0.78667327325642844,0.78667327325637704,0.78667327325632863,5.8041790706601155
0.051999999999999991,102.3698503868299,102.3698503868327,102.36985038683559,0.74114910967213754,0.74114910967208991,0.74114910967204062,3.4894541977986595
0.052999999999999992,102.82157234579121,102.82157234579425,102.82157234579708,0.65880159439559483,0.65880159439554575,0.65880159439550012,0.42842010675294162
0.053999999999999992,102.63259475239904,102.63259475240173,102.63259475240419,0.54964307385919942,0.54964307385921118,0.54964307385922195,-2.6968022162381402
0.054999999999999993,102.04844206238306,102.04844206238562,102.04844206238813,0.42739643109002018,0.4273964310900345,0.42739643109004866,-5.27533288221424
0.055999999999999994,101.3699349852116,101.36993498521407,101.36993498521652,0.30881331440691717,0.30881331440693405,0.3088133144069507,-6.9134100991038956
0.056999999999999995,100.80318706988784,100.80318706989068,100.80318706989338,0.20830843019728193,0.20830843019730425,0.20830843019732545,-7.5653855361633253
0.057999999999999989,100.41390118634858,100.41390118635131,100.41390118635427,0.13718292555203651,0.13718292555205996,0.13718292555208536,-7.4193428029153994
0.05899999999999999,100.16378718086619,100.16378718086897,100.16378718087205,0.09906684905576596,0.099066849055790884,0.099066849055818612,-6.8430039115363819
0.059999999999999991,99.979886750762248,99.979886750765004,99.979886750768074,0.091955727777123283,0.091955727777148319,0.091955727777176199,-6.2092675720820836
0.060999999999999992,99.800881767881918,99.800881767884562,99.800881767887432,0.11049981615662485,0.11049981615664842,0.11049981615667401,-5.7356389452358751
0.061999999999999993,99.584929924900862,99.584929924903392,99.584929924906305,0.15093964101266569,0.15093964101268725,0.15093964101271207,-5.359256700107867
0.062999999999999987,99.307875215037825,99.307875215040468,99.30787521504358,0.20933838400196755,0.20933838400198859,0.20933838400201338,-4.9140363464064896
0.063999999999999987,98.971897458210449,98.971897458213022,98.971897458216148,0.28395467950268533,0.28395467950270392,0.28395467950272651,-4.1500760022943428
0.064999999999999988,98.623132484450394,98.623132484453009,98.623132484455923,0.37345625261607124,0.37345625261608784,0.37345625261610632,-2.9488220305823614
0.065999999999999989,98.35581331271537,98.355813312718098,98.355813312721082,0.47373744719568028,0.47373744719569488,0.47373744719571087,-1.3642876928511081
0.06699999999999999,98.291336603740646,98.291336603742977,98.291336603746871,0.57565859142478903,0.57565859142475162,0.57565859142468923,0.36601485294635072
0.067999999999999991,98.524986649220821,98.524986649222953,98.52498664922679,0.66588353902357933,0.66588353902354325,0.66588353902347841,1.8744004666320118
0.068999999999999992,99.060981654026989,99.060981654028367,99.060981654031792,0.73229752253240332,0.73229752253237923,0.73229752253231928,2.8824192153055939
0.069999999999999993,99.787362525412419,99.787362525413656,99.787362525416953,0.7660240389052001,0.76602403890517823,0.76602403890511983,3.1645781925455765
0.070999999999999994,100.49551071085581,100.49551071085772,100.49551071086039,0.76051908012472613,0.76051908012469283,0.76051908012464597,2.6090746520211816
0.071999999999999995,100.97389523980587,100.97389523980749,100.97389523981072,0.71633398693300121,0.71633398693297368,0.71633398693291883,1.3481314815646233
0.072999999999999995,101.10698071780742,101.10698071780959,101.10698071781297,0.63911113035786393,0.6391111303578717,0.63911113035788369,-0.30398314794983428
0.073999999999999996,100.9205465041782,100.92054650418021,100.92054650418395,0.53966202830147281,0.53966202830148191,0.53966202830149901,-1.9535978836437433
0.074999999999999983,100.54102181975118,100.54102181975249,100.54102181975617,0.42962226065343945,0.42962226065344689,0.42962226065346776,-3.3260583394265435
0.075999999999999984,100.11410801256082,100.1141080125621,100.11410801256604,0.32304623505463143,0.32304623505464003,0.32304623505466667,-4.2250002506817683
0.076999999999999985,99.741332848684394,99.741332848685715,99.74133284868941,0.2325149294484713,0.23251492944848148,0.2325149294485099,-4.6833418123891848
0.077999999999999986,99.454886763380486,99.454886763381907,99.454886763385403,0.16693741556481084,0.16693741556482275,0.16693741556485203,-4.8903313055941835
0.078999999999999987,99.235694665626539,99.235694665628046,99.235694665631527,0.12796679776262262,0.12796679776263586,0.12796679776266645,-5.1002744619403586
0.079999999999999988,99.045087348559932,99.04508734856195,99.045087348565517,0.11550808735999585,0.11550808736001388,0.11550808736004572,-5.4557079426699611
0.080999999999999989,98.838795524419012,98.83879552442103,98.83879552442481,0.12626196669641171,0.12626196669642956,0.12626196669646295,-5.9763822947804552
0.08199999999999999,98.575311883070896,98.575311883072914,98.575311883076751,0.15663066235240528,0.15663066235242254,0.15663066235245537,-6.4541478625958435
0.08299999999999999,98.220309828681323,98.220309828683568,98.220309828687377,0.20446454938337325,0.20446454938339143,0.20446454938342226,-6.5538840477613673
0.083999999999999991,97.77223165093308,97.772231650935126,97.772231650938991,0.27033097776002096,0.27033097776003623,0.27033097776006504,-5.9382911988016787
0.084999999999999992,97.282017064886602,97.28201706488899,97.282017064892528,0.35433036100012266,0.35433036100013854,0.35433036100016202,-4.4824803714743142
0.085999999999999993,96.876372056103833,96.876372056105879,96.87637205610929,0.45367097627965997,0.45367097627967151,0.45367097627969072,-2.2748371964584893
0.086999999999999994,96.740983767440255,96.740983767441833,96.740983767445329,0.55943639505339215,0.55943639505336673,0.55943639505331033,0.31321443369944379
0.087999999999999995,97.055083469515793,97.055083469517228,97.055083469521207,0.65897088866535258,0.65897088866532805,0.65897088866525999,2.8008943682364222
0.088999999999999982,97.884010076177418,97.884010076178967,97.884010076182506,0.73672239010557028,0.73672239010554275,0.73672239010548002,4.6537040323388794
0.089999999999999983,99.0929207694561,99.092920769457905,99.092920769461287,0.77960642268741309,0.77960642268738067,0.77960642268731994,5.436356689174489
0.090999999999999984,100.37430689895577,100.37430689895707,100.37430689896112,0.77987719498465458,0.77987719498463137,0.77987719498455954,4.9602199088123751
0.091999999999999985,101.37991797229658,101.37991797229782,101.37991797230316,0.73792575337246347,0.73792575337244226,0.73792575337235067,3.3782223499776194
0.092999999999999985,101.88995286025705,101.88995286025855,101.88995286026419,0.6602526704646261,0.66025267046460179,0.66025267046450986,1.1227318618192292
0.093999999999999986,101.89319230360367,101.89319230360483,101.89319230361082,0.55605526075924538,0.55605526075925038,0.55605526075927647,-1.3021615742878154
0.094999999999999987,101.54560170648561,101.54560170648705,101.5456017064931,0.43983892925977408,0.43983892925978196,0.43983892925981538,-3.4237613230856621
0.095999999999999988,101.06231422618468,101.0623142261864,101.06231422619241,0.32601192826016412,0.32601192826017555,0.32601192826021563,-4.972677331131794
0.096999999999999989,100.60832631037266,100.60832631037455,100.60832631038078,0.22780099578457225,0.22780099578458674,0.2278009957846345,-5.9179468909765749
0.09799999999999999,100.25554564049588,100.25554564049764,100.25554564050393,0.15442150139024222,0.15442150139025707,0.15442150139031005,-6.413139296713112
0.098999999999999991,99.998869583827059,99.998869583829105,99.998869583835301,0.10986534856355475,0.10986534856357297,0.10986534856362812,-6.6657978697387872
0.099999999999999992,99.794803480328028,99.794803480329861,99.794803480336384,0.093786967451756825,0.093786967451773465,0.093786967451832695,-6.8433049812210456
0.10099999999999999,99.591378862163182,99.591378862165158,99.591378862171794,0.10448474529866969,0.10448474529868745,0.10448474529874713,-6.9487087715016482
0.10199999999999999,99.339897595721794,99.339897595723841,99.339897595730477,0.13848161081277305,0.13848161081279078,0.13848161081284835,-6.8919995045998039
0.10299999999999998,99.006583630256557,99.006583630258675,99.006583630265609,0.19329081786295646,0.1932908178629737,0.19329081786303021,-6.4547525486288428
0.10399999999999998,98.594436221505632,98.594436221507692,98.594436221514641,0.26764797014715319,0.26764797014716851,0.26764797014722014,-5.4230736411136302
0.10499999999999998,98.16437607179887,98.164376071800774,98.164376071807283,0.35953131409332634,0.35953131409333877,0.35953131409338124,-3.7353251506472933
0.10599999999999998,97.847124277491076,97.847124277492796,97.847124277499191,0.46379665542126297,0.46379665542127241,0.46379665542130744,-1.5184495934740614
0.10699999999999998,97.814643612440577,97.814643612442723,97.814643612449345,0.57035568440313611,0.57035568440310169,0.57035568440299533,0.89618390063764064
0.10799999999999998,98.214479549349036,98.214479549351751,98.214479549358586,0.66672753277321006,0.6667275327731641,0.66672753277304808,3.0678039999591373
0.10899999999999999,99.068778472820725,99.068778472822672,99.068778472829578,0.73928112308617944,0.73928112308614524,0.73928112308602401,4.5568924176869778
0.10999999999999999,100.21521441115692,100.21521441115861,100.21521441116512,0.77600617912788594,0.77600617912785597,0.77600617912774061,4.9834355075605163
0.11099999999999999,101.34679892741855,101.34679892742017,101.34679892742582,0.77145714622753725,0.77145714622750894,0.77145714622741002,4.2262273646260944
0.11199999999999999,102.15134915492831,102.15134915492985,102.15134915493627,0.72722001598377084,0.72722001598374486,0.72722001598363628,2.4804039440703738
0.11299999999999999,102.45399359715707,102.4539935971596,102.45399359716659,0.64786868569339706,0.64786868569335643,0.64786868569324396,0.13131955881811841
0.11399999999999999,102.27689767523364,102.27689767523709,102.27689767524384,0.54384219044083548,0.5438421904408508,0.543842190440881,-2.2850345787729296
0.11499999999999999,101.79848463737397,101.79848463737783,101.79848463738379,0.42816379524178033,0.42816379524180198,0.42816379524183545,-4.3047977470639136
0.11599999999999998,101.23949851498851,101.23949851499185,101.23949851499771,0.31555844868694011,0.3155584486869627,0.31555844868700228,-5.6636969314335026
0.11699999999999998,100.75574464880667,100.75574464880998,100.75574464881612,0.21942973277674938,0.21942973277677505,0.21942973277682259,-6.3207482090642095
0.11799999999999998,100.40178723435051,100.4017872343539,100.40178723436027,0.14946536714453887,0.14946536714456765,0.14946536714462158,-6.4485597387129232
0.11899999999999998,100.15569318190846,100.1556931819119,100.15569318191851,0.10966570874966769,0.10966570874969826,0.10966570874975701,-6.3111031550301693
0.11999999999999998,99.963519475962812,99.96351947596645,99.963519475973101,0.099441922387124612,0.099441922387157392,0.099441922387217302,-6.1489207540624609
0.12099999999999998,99.768726266910434,99.768726266914186,99.768726266920609,0.11422499259460073,0.11422499259463405,0.11422499259469107,-6.0989545662593025
0.12199999999999998,99.527930485637967,99.527930485641605,99.52793048564817,0.15021318052420868,0.15021318052423974,0.1502131805242958,-6.051547802390699
0.12299999999999998,99.212882073288029,99.212882073291695,99.212882073298019,0.20531031312069264,0.20531031312072201,0.20531031312077266,-5.7495725954186101
0.12399999999999999,98.823065178969543,98.823065178973167,98.823065178979661,0.27746090158390113,0.27746090158392761,0.27746090158397507,-4.9677679449185064
0.12499999999999999,98.410787590963352,98.410787590967118,98.410787590973257,0.36507830778426464,0.36507830778428896,0.36507830778432854,-3.5958991691072715
