"Time","Vm1:Measured voltage:1","Vm1:Measured voltage:2","Vm1:Measured voltage:3","Divide18:1","Divide18:2","Divide18:3","Am1:Measured current"
0,100,100,100,0.083333333333333426,0.083333333333333426,0.083333333333333426,0
0.0009999999999999998,99.975924930702959,99.97592493070303,99.975924930703101,0.10368878868831814,0.10368878868831878,0.10368878868831942,-0.99261566988439709
0.0019999999999999996,99.936124066336362,99.936124066336518,99.936124066336873,0.15006676226800519,0.15006676226800653,0.15006676226800955,-1.1408606812660269
0.0029999999999999996,99.872184628106623,99.872184628106567,99.872184628106794,0.2213929641778303,0.22139296417782986,0.22139296417783164,-1.2032542731061473
0.0039999999999999992,99.780259322086351,99.780259322086295,99.780259322086366,0.31198790253403014,0.31198790253402969,0.31198790253403019,-1.1721829599572269
0.0049999999999999992,99.66698123549655,99.666981235496905,99.666981235497204,0.4131225357573301,0.41312253575733221,0.41312253575733393,-1.0558204416679255
0.0059999999999999993,99.549788044527915,99.549788044528455,99.549788044529251,0.51539602599712298,0.51539602599712564,0.51539602599712941,-0.83015174857771257
0.0069999999999999993,99.456119935496559,99.456119935497412,99.456119935498137,0.60736121937648879,0.60736121937649223,0.60736121937649512,-0.54303841038409195
0.0079999999999999984,99.418948902661512,99.418948902662734,99.418948902663544,0.6813364140277739,0.68133641402777778,0.68133641402778033,-0.18574332056574072
0.0089999999999999993,99.461696784890151,99.461696784891174,99.461696784891075,0.73018681692861609,0.73018681692859833,0.7301868169286001,0.18706086037650863
0.0099999999999999985,99.584737524552281,99.584737524553219,99.584737524552665,0.74884289229634105,0.74884289229632461,0.74884289229633427,0.47296050150304814
0.010999999999999999,99.757771637386426,99.757771637387293,99.757771637386341,0.73603146317059853,0.73603146317058343,0.73603146317059998,0.60434707088625017
0.011999999999999999,99.924692559191016,99.924692559192422,99.924692559191044,0.69140235010561746,0.6914023501055937,0.69140235010561701,0.49875718264690372
0.012999999999999998,100.03230978078888,100.03230978079007,100.03230978078884,0.6196221010073909,0.61962210100737158,0.61962210100739157,0.18596636555850088
0.013999999999999999,100.05246400282753,100.0524640028283,100.05246400282728,0.52708031226505525,0.5270803122650588,0.52708031226505403,-0.27397399906716657
0.014999999999999998,99.996125187559244,99.996125187560082,99.996125187558462,0.42401386986448558,0.42401386986449041,0.42401386986448109,-0.75658922911549853
0.015999999999999997,99.897267719874051,99.897267719874804,99.897267719873625,0.3211738624911234,0.3211738624911285,0.32117386249112051,-1.1515765180486315
0.016999999999999998,99.794133107455195,99.794133107455821,99.794133107454542,0.22996530377226135,0.22996530377226615,0.2299653037722563,-1.4137308316193509
0.017999999999999999,99.707764523924382,99.707764523925178,99.707764523924141,0.15823354464804809,0.15823354464805481,0.15823354464804607,-1.5940601706217987
0.018999999999999996,99.641284559379798,99.641284559380537,99.64128455937967,0.11334431174926825,0.11334431174927483,0.11334431174926711,-1.7347673548006888
0.019999999999999997,99.584687545657033,99.584687545657715,99.584687545656777,0.098156834281680372,0.098156834281686547,0.098156834281678054,-1.914425149132184
0.020999999999999998,99.521665141841964,99.521665141842604,99.521665141841922,0.11289121707663567,0.11289121707664138,0.11289121707663528,-2.1487034060543131
0.021999999999999999,99.431014435780867,99.431014435781222,99.431014435780725,0.15304920722439977,0.15304920722440279,0.15304920722439858,-2.4207380525872346
0.022999999999999996,99.294000066845527,99.294000066845939,99.294000066845626,0.21668876843626247,0.21668876843626572,0.21668876843626325,-2.5450388552308469
0.023999999999999997,99.104152290484592,99.104152290484905,99.104152290484691,0.29801183017835742,0.29801183017835964,0.29801183017835808,-2.4171873637450703
0.024999999999999998,98.882652878910747,98.882652878911045,98.882652878911188,0.39242907215125572,0.39242907215125755,0.39242907215125844,-1.9466480711818006
0.025999999999999995,98.688886973861685,98.688886973862324,98.688886973862836,0.49389472616813462,0.4938947261681379,0.49389472616814056,-1.1538984494516247
0.026999999999999996,98.601103679179062,98.60110367917936,98.601103679179985,0.59250004053350303,0.59250004053350436,0.59250004053350691,-0.20691017673671652
0.027999999999999997,98.683407429674759,98.683407429674588,98.683407429675924,0.67685699168576374,0.67685699168576663,0.67685699168574387,0.69543173628278521
0.028999999999999995,98.949981529419688,98.94998152941983,98.949981529421123,0.73631306133367025,0.73631306133366781,0.73631306133364516,1.3507720017574947
0.029999999999999995,99.344539481128891,99.34453948112872,99.344539481131505,0.76364201549229804,0.76364201549230115,0.76364201549225164,1.6276588924695443
0.030999999999999996,99.755327066436209,99.755327066435825,99.755327066438824,0.75363072861752722,0.753630728617534,0.75363072861748126,1.4451604142783889
0.031999999999999994,100.06563007265717,100.06563007265711,100.06563007265972,0.70776029905360704,0.70776029905360804,0.70776029905356364,0.89080369878116672
0.032999999999999995,100.21173429344897,100.21173429344881,100.21173429345183,0.63197286073446879,0.63197286073447134,0.63197286073442227,0.13643686005028188
0.033999999999999996,100.19467910649827,100.19467910649843,100.19467910650147,0.534491369045484,0.53449136904548467,0.53449136904549877,-0.65127135031848171
0.034999999999999996,100.06792060659068,100.06792060659049,100.06792060659288,0.42656851274268998,0.42656851274268892,0.42656851274270263,-1.3232723551400847
0.035999999999999997,99.899099250607023,99.899099250606668,99.89909925060941,0.31941677629009518,0.3194167762900928,0.31941677629011145,-1.8265615894412099
0.036999999999999998,99.739363246719435,99.739363246719378,99.739363246722178,0.22481649202378387,0.22481649202378343,0.22481649202380519,-2.1439447152037383
0.037999999999999992,99.613673476918933,99.613673476919132,99.613673476922074,0.15130305844373179,0.15130305844373348,0.15130305844375855,-2.3530207750727055
0.038999999999999993,99.521728946727023,99.521728946727222,99.52172894673015,0.10451802116216294,0.10451802116216473,0.10451802116219107,-2.5132084719548624
0.039999999999999994,99.448255492443025,99.448255492443252,99.448255492446421,0.087694406425987012,0.087694406425989094,0.087694406426018168,-2.6548266020228173
0.040999999999999995,99.372926410704963,99.372926410704963,99.372926410708274,0.1019565922327272,0.1019565922327272,0.10195659223275713,-2.7527592335348814
0.041999999999999996,99.271619893169898,99.271619893169714,99.271619893173082,0.14411607155251938,0.14411607155251779,0.14411607155254683,-2.7905051936957541
0.042999999999999997,99.127601459583133,99.127601459583119,99.127601459586643,0.21076660500153674,0.21076660500153663,0.21076660500156469,-2.6483776244637993
0.043999999999999997,98.942516286346461,98.942516286346262,98.942516286349701,0.29663498448396808,0.29663498448396663,0.29663498448399112,-2.2563076602346093
0.044999999999999991,98.749721688583193,98.749721688583051,98.749721688586561,0.39546326625202793,0.3954632662520271,0.39546326625204858,-1.5659181040748618
0.045999999999999992,98.61727530263434,98.617275302634582,98.617275302638546,0.49980357670134146,0.49980357670134268,0.49980357670136277,-0.61167499262061265
0.046999999999999993,98.628971241449477,98.628971241449761,98.62897124145357,0.59865788784670271,0.59865788784669816,0.59865788784663643,0.4369804954562293
0.047999999999999994,98.844477941132922,98.844477941133491,98.844477941137498,0.68125520269708351,0.68125520269707385,0.68125520269700568,1.387933124961777
0.048999999999999995,99.267785516065544,99.267785516066496,99.267785516069566,0.73894602379440222,0.73894602379438545,0.73894602379433172,2.0614014444251465
0.049999999999999996,99.8201582823216,99.820158282322836,99.82015828232592,0.76451853662490976,0.76451853662488789,0.76451853662483338,2.2751450484248181
0.050999999999999997,100.36371291750946,100.36371291751097,100.36371291751394,0.7531984175917138,0.75319841759168749,0.75319841759163564,1.9234843094254948
0.051999999999999991,100.75474359792277,100.75474359792391,100.75474359792716,0.70662656777988619,0.70662656777986699,0.70662656777981181,1.1251199728135615
0.052999999999999992,100.91553966263629,100.91553966263766,100.91553966264138,0.62922361059622212,0.62922361059620002,0.62922361059613996,0.048861696815174938
0.053999999999999992,100.85723225745578,100.85723225745686,100.85723225746021,0.53052724383818683,0.53052724383819183,0.53052724383820749,-1.0377549675998017
0.054999999999999993,100.65834296511028,100.65834296511066,100.65834296511423,0.42089169335585547,0.42089169335585769,0.42089169335587823,-1.9379316104501885
0.055999999999999994,100.41686788115689,100.4168678811568,100.41686788116064,0.31230949193505542,0.31230949193505486,0.31230949193508112,-2.521944377053404
0.056999999999999995,100.20825333850108,100.20825333850082,100.20825333850482,0.21681909896335352,0.21681909896335153,0.21681909896338272,-2.7576499144707882
0.057999999999999989,100.06000398136565,100.0600039813653,100.06000398136939,0.14365495805546269,0.14365495805545966,0.14365495805549469,-2.7251895042461083
0.05899999999999999,99.965222379964104,99.965222379963933,99.965222379968012,0.099261908804570448,0.099261908804568907,0.099261908804605656,-2.5310840482346872
0.059999999999999991,99.899588688690258,99.899588688690216,99.899588688694109,0.085972172166302069,0.08597217216630168,0.085972172166337305,-2.310910573487555
0.060999999999999992,99.838168998240207,99.838168998240178,99.838168998243887,0.10329739804003704,0.10329739804003678,0.1032973980400701,-2.1373578782511267
0.061999999999999993,99.761332361653785,99.761332361653857,99.761332361657651,0.1478992122740275,0.14789921227402811,0.1478992122740605,-2.0212608851274316
0.062999999999999987,99.656710715618431,99.65671071561863,99.656710715622637,0.21624905609207193,0.21624905609207351,0.21624905609210501,-1.8587611425635162
0.063999999999999987,99.525566221890585,99.525566221890529,99.525566221894508,0.3030885842675099,0.30308858426750951,0.30308858426753738,-1.5795908350597871
0.064999999999999988,99.388601163110096,99.38860116311011,99.388601163114473,0.40150518289436266,0.40150518289436271,0.40150518289438897,-1.1410977063451297
0.065999999999999989,99.288589733866061,99.288589733865919,99.288589733870595,0.5035569007617573,0.50355690076175663,0.50355690076177995,-0.55392910143132901
0.06699999999999999,99.276507022502784,99.276507022501931,99.276507022506678,0.59992899382238529,0.59992899382239895,0.59992899382232245,0.11380201706872062
0.067999999999999991,99.390069887033988,99.390069887032894,99.390069887037669,0.67933222049835007,0.6793322204983685,0.6793322204982879,0.69720602840564139
0.068999999999999992,99.629113482382607,99.62911348238157,99.629113482385648,0.73391167692557846,0.73391167692559645,0.7339116769255255,1.1076303128024749
0.069999999999999993,99.944673478217268,99.944673478216373,99.944673478221304,0.75633914950588099,0.75633914950589676,0.75633914950581016,1.2113477988876609
0.070999999999999994,100.25082572638155,100.25082572638009,100.25082572638539,0.74393780844285073,0.74393780844287627,0.74393780844278401,0.99303534508014391
0.071999999999999995,100.46315404023927,100.46315404023778,100.46315404024328,0.69757591739043734,0.69757591739046254,0.69757591739036962,0.49363305320434714
0.072999999999999995,100.53586071451632,100.53586071451497,100.53586071451959,0.62236151670589968,0.62236151670589457,0.62236151670591189,-0.15505038472190247
0.073999999999999996,100.47841621032943,100.47841621032767,100.47841621033263,0.52645061315309716,0.52645061315308894,0.52645061315311226,-0.80921179394005005
0.074999999999999983,100.33971271386098,100.33971271385953,100.33971271386486,0.42016697758459653,0.42016697758458815,0.42016697758461891,-1.3462097922145388
0.075999999999999984,100.17850899433223,100.17850899433053,100.17850899433601,0.31574587356514394,0.31574587356513228,0.31574587356516975,-1.6726727128480849
0.076999999999999985,100.03880464594303,100.03880464594164,100.03880464594695,0.22349460614153291,0.22349460614152211,0.22349460614156336,-1.8259539820624207
0.077999999999999986,99.93588730598664,99.935887305985702,99.935887305990818,0.15262436856481079,0.15262436856480285,0.15262436856484621,-1.8635061404119511
0.078999999999999987,99.8633415515732,99.863341551572333,99.863341551577363,0.10847232413604951,0.10847232413604178,0.10847232413608669,-1.885280760991251
0.079999999999999988,99.806318048917674,99.806318048916921,99.806318048921796,0.093828339922403872,0.09382833992239703,0.093828339922441287,-1.9693766457450093
0.080999999999999989,99.745614751417023,99.745614751416099,99.745614751420902,0.10880168315712732,0.10880168315711908,0.10880168315716199,-2.1062517259108491
0.08199999999999999,99.661449243565485,99.66144924356432,99.66144924356928,0.15053926954147517,0.15053926954146526,0.15053926954150754,-2.2704203704467383
0.08299999999999999,99.536183760750589,99.536183760749367,99.536183760754341,0.21565784465164753,0.2156578446516379,0.21565784465167709,-2.3217881484747078
0.083999999999999991,99.365036310867652,99.365036310866472,99.365036310871233,0.29928716341922046,0.29928716341921213,0.29928716341924572,-2.1528441507330194
0.084999999999999992,99.169493813862502,99.169493813861635,99.169493813866055,0.3955999272887768,0.39559992728877147,0.39559992728879845,-1.6986849831072484
0.085999999999999993,99.003044544341606,99.003044544340668,99.0030445443454,0.49705334283625746,0.49705334283625274,0.49705334283627678,-0.98018649778751454
0.086999999999999994,98.938128932509173,98.938128932507837,98.938128932512228,0.59469989419040425,0.59469989419039881,0.5946998941904168,-0.097193859479571154
0.087999999999999995,99.035803314412632,99.035803314411069,99.035803314415404,0.67665310392977551,0.67665310392980205,0.67665310392972866,0.74465692346313372
0.088999999999999982,99.310865130190777,99.310865130189327,99.31086513019406,0.73454700477870349,0.73454700477872881,0.73454700477864621,1.3914780548286561
0.089999999999999983,99.709273628158115,99.709273628156936,99.709273628162691,0.75953361437508082,0.7595336143751017,0.75953361437500011,1.6567777331074955
0.090999999999999984,100.12720046326295,100.12720046326156,100.12720046326658,0.74928634955066697,0.74928634955069129,0.74928634955060369,1.5113184416255709
0.091999999999999985,100.45232003291605,100.45232003291541,100.45232003292035,0.70378733231760182,0.7037873323176127,0.70378733231752877,0.9756293667418956
0.092999999999999985,100.61232876364407,100.61232876364448,100.61232876364886,0.62837948625126916,0.6283794862512625,0.62837948625119155,0.21145050197596493
0.093999999999999986,100.60595618642866,100.60595618642928,100.60595618643332,0.53153053085989443,0.53153053085989732,0.53153053085991608,-0.60133295793259967
0.094999999999999987,100.48521488555218,100.48521488555301,100.48521488555755,0.4245239515336745,0.42452395153367922,0.42452395153370526,-1.2960492689272751
0.095999999999999988,100.31773930144988,100.31773930145056,100.31773930145525,0.31753612304250445,0.31753612304250911,0.31753612304254097,-1.8156262019254039
0.096999999999999989,100.16087190522887,100.16087190522984,100.16087190523429,0.2233091135853521,0.2233091135853596,0.2233091135853941,-2.1045970226860584
0.09799999999999999,100.0396865019521,100.03968650195286,100.03968650195698,0.14987058220628541,0.14987058220629182,0.14987058220632685,-2.2564810776200419
0.098999999999999991,99.953456998935025,99.953456998935735,99.953456998939714,0.10294401725623487,0.10294401725624125,0.10294401725627696,-2.339816309797548
0.099999999999999992,99.887654616367044,99.88765461636784,99.887654616371989,0.087390488934468713,0.087390488934475985,0.087390488934513899,-2.3741303631748627
0.10099999999999999,99.820977033429187,99.820977033429983,99.820977033434033,0.10241247201207351,0.10241247201208067,0.10241247201211709,-2.4119534563811813
0.10199999999999999,99.732578691250268,99.732578691251078,99.732578691254844,0.14578550876053842,0.14578550876054536,0.14578550876057761,-2.4169632724686196
0.10299999999999998,99.60628653405746,99.606286534057872,99.606286534061695,0.21253933391221194,0.21253933391221519,0.21253933391224542,-2.3184719374214966
0.10399999999999998,99.44264356881564,99.442643568816266,99.442643568820415,0.29796154387122536,0.29796154387122981,0.29796154387125912,-2.0227436925432491
0.10499999999999998,99.268370609468036,99.268370609468576,99.26837060947264,0.39688304927281959,0.39688304927282292,0.39688304927284757,-1.4484260447563309
0.10599999999999998,99.139279409850658,99.139279409850744,99.139279409854666,0.50001139185313159,0.50001139185313204,0.5000113918531518,-0.67085332497837924
0.10699999999999998,99.125272328812954,99.125272328812201,99.125272328816308,0.59807372947108561,0.59807372947109783,0.59807372947103155,0.20276726759708708
0.10799999999999998,99.278293217540906,99.278293217540323,99.2782932175447,0.67999307308689816,0.67999307308690804,0.67999307308683399,0.99850973211509497
0.10899999999999999,99.598977151696801,99.598977151695877,99.598977151700367,0.73597523509131679,0.73597523509133289,0.73597523509125462,1.5352509759648498
0.10999999999999999,100.02192787090232,100.02192787090182,100.02192787090628,0.7596277804793653,0.75962778047937407,0.75962778047929558,1.701292245162441
0.11099999999999999,100.438338901449,100.43833890144968,100.43833890145422,0.74789287506377433,0.74789287506376245,0.74789287506368352,1.4426191907438204
0.11199999999999999,100.73567861240208,100.73567861240197,100.73567861240626,0.70115817769098487,0.70115817769098676,0.70115817769091426,0.80050431423960378
0.11299999999999999,100.8542713787231,100.85427137872311,100.85427137872777,0.62598428087710889,0.62598428087710889,0.62598428087712621,-0.024754601398514264
0.11399999999999999,100.80040694870426,100.80040694870463,100.80040694870939,0.52893877239477838,0.52893877239478015,0.52893877239480236,-0.901577594893332
0.11499999999999999,100.63327980861885,100.63327980861906,100.6332798086241,0.42113241869015056,0.42113241869015178,0.42113241869018075,-1.63658121766619
0.11599999999999998,100.43009724957302,100.43009724957319,100.43009724957811,0.31391387622191375,0.31391387622191491,0.3139138762219485,-2.1392365905741508
0.11699999999999998,100.25122621195463,100.25122621195486,100.25122621195963,0.21991433760364129,0.21991433760364307,0.2199143376036802,-2.362192649799344
0.11799999999999998,100.12048980394964,100.12048980394989,100.12048980395475,0.14732782159490831,0.14732782159491048,0.14732782159495189,-2.4027202641794116
0.11899999999999998,100.03272807330072,100.0327280733011,100.03272807330595,0.10276209575189219,0.10276209575189563,0.10276209575193909,-2.3351433566207804
0.11999999999999998,99.968120896481082,99.968120896481494,99.968120896486667,0.087956674686648306,0.087956674686652067,0.087956674686699265,-2.2751274562068002
0.12099999999999998,99.904370664367789,99.904370664368102,99.904370664373232,0.1039516376170205,0.10395163761702331,0.10395163761706931,-2.2391047282183671
0.12199999999999998,99.821744206708686,99.821744206709383,99.821744206714342,0.14773071732968812,0.14773071732969409,0.14773071732973642,-2.2102348642177421
0.12299999999999998,99.705885129884379,99.70588512988482,99.70588512988958,0.21577902674768312,0.21577902674768659,0.21577902674772403,-2.0923417053624682
0.12399999999999999,99.555538930866092,99.555538930866547,99.555538930871521,0.30094766074479878,0.300947660744802,0.30094766074483692,-1.8512323177475265
