"Time","Vm1:Measured voltage:1","Vm1:Measured voltage:2","Vm1:Measured voltage:3","Divide18:1","Divide18:2","Divide18:3","Am1:Measured current"
0,100,100,100,0.083333333333333426,0.083333333333333426,0.083333333333333426,0
0.0009999999999999998,99.945339105469671,99.945339105469671,99.945339105469756,0.10887469836350856,0.10887469836350856,0.10887469836350933,-2.2100630085353203
0.0019999999999999996,99.850940506122342,99.850940506122086,99.850940506122001,0.15382558186522038,0.15382558186521822,0.15382558186521747,-2.5755149525115164
0.0029999999999999996,99.701957210163428,99.701957210163286,99.701957210163442,0.22221540360203129,0.22221540360203018,0.2222154036020314,-2.7157411486253693
0.0039999999999999992,99.489049355148836,99.489049355148722,99.489049355148921,0.31024657186291138,0.3102465718629106,0.31024657186291199,-2.6303723181601084
0.0049999999999999992,99.222850833421148,99.222850833421361,99.222850833421106,0.40899846025581132,0.4089984602558126,0.40899846025581105,-2.340840660413841
0.0059999999999999993,98.940315478806184,98.940315478806511,98.940315478805999,0.50878159006152524,0.50878159006152679,0.50878159006152435,-1.8387422641061368
0.0069999999999999993,98.703014285564763,98.703014285564919,98.703014285564251,0.59930062957516073,0.59930062957516128,0.59930062957515862,-1.1290505072152475
0.0079999999999999984,98.584967878348763,98.584967878349119,98.584967878348323,0.6725385106010634,0.67253851060106462,0.67253851060106196,-0.26332885150854102
0.0089999999999999993,98.65144802095972,98.651448020959961,98.651448020959023,0.72306924781953386,0.72306924781952964,0.72306924781954607,0.66561623776163148
0.0099999999999999985,98.915849363865249,98.915849363865192,98.915849363864439,0.74578811016304214,0.74578811016304314,0.74578811016305646,1.4192512724829618
0.010999999999999999,99.309650007720464,99.309650007720151,99.309650007719341,0.73773818415231229,0.73773818415231773,0.73773818415233194,1.7748238876949873
0.011999999999999999,99.709048118009633,99.709048118009378,99.709048118008425,0.69786474547451105,0.69786474547451538,0.69786474547453159,1.5735401051632874
0.012999999999999998,99.983752386236702,99.983752386236745,99.983752386235849,0.62983369906399456,0.62983369906399389,0.62983369906400843,0.85766218262189042
0.013999999999999999,100.05954920449236,100.05954920449231,100.0595492044916,0.53903925367547589,0.53903925367547578,0.53903925367547245,-0.22999715984833102
0.014999999999999998,99.952421333629331,99.952421333629303,99.952421333629289,0.43685479635989383,0.43685479635989366,0.4368547963598936,-1.3997432584107319
0.015999999999999997,99.734808764095376,99.734808764095064,99.734808764094609,0.33484006025186536,0.3348400602518633,0.33484006025186025,-2.4134245440475137
0.016999999999999998,99.49244543224161,99.492445432240558,99.492445432240075,0.24469592705474039,0.24469592705473239,0.24469592705472873,-3.1665785782131142
0.017999999999999999,99.27692098327833,99.276920983277364,99.276920983276824,0.17708353714650235,0.17708353714649436,0.17708353714648986,-3.6744813793192428
0.018999999999999996,99.095674865413656,99.095674865412732,99.095674865412391,0.13632085981979652,0.13632085981978848,0.13632085981978551,-4.1200436254010695
0.019999999999999997,98.927117894526148,98.927117894525409,98.927117894525338,0.1229326028302215,0.12293260283021495,0.12293260283021432,-4.6607319786388972
0.020999999999999998,98.735832879625306,98.735832879624198,98.735832879623985,0.13275656243673889,0.13275656243672918,0.13275656243672729,-5.3695337912283856
0.021999999999999999,98.483194847459757,98.483194847458762,98.483194847458506,0.16235618913160973,0.16235618913160127,0.1623561891315991,-6.0380036249559561
0.022999999999999996,98.136103316358202,98.136103316357335,98.136103316357477,0.20832865927946118,0.20832865927945418,0.20832865927945532,-6.3425399370502884
0.023999999999999997,97.690005273036405,97.690005273035155,97.690005273035439,0.27144693752324728,0.27144693752323795,0.27144693752324006,-5.9254325172872218
0.024999999999999998,97.193658340315054,97.193658340313789,97.193658340314542,0.35383430604188343,0.35383430604187505,0.35383430604188004,-4.6174290329923631
0.025999999999999995,96.762413717114285,96.762413717112807,96.762413717113674,0.45304987231251143,0.4530498723125031,0.45304987231250798,-2.5793521081827464
0.026999999999999996,96.566628838455671,96.56662883845398,96.56662883845523,0.56137502206110135,0.56137502206109369,0.56137502206109935,-0.17006590493987073
0.027999999999999997,96.768463135523945,96.768463135522126,96.768463135523135,0.66256812631817463,0.66256812631820583,0.66256812631818851,2.0660788515158002
0.028999999999999995,97.419829552715754,97.419829552713665,97.419829552714901,0.74153389766660072,0.74153389766663813,0.74153389766661604,3.677679967793412
0.029999999999999995,98.395806507987189,98.395806507984787,98.39580650798618,0.78495359769941841,0.78495359769946194,0.78495359769943673,4.316211156456859
0.030999999999999996,99.416106019473048,99.416106019470732,99.416106019471798,0.78401069295796211,0.78401069295800363,0.78401069295798453,3.834063122986497
0.031999999999999994,100.18595579285356,100.18595579285126,100.18595579285193,0.74081653738180986,0.74081653738184983,0.74081653738183817,2.4551959294786379
0.032999999999999995,100.53733979036903,100.53733979036652,100.53733979036741,0.66149172256843525,0.66149172256847688,0.66149172256846211,0.55419786843555841
0.033999999999999996,100.47680288734799,100.4768028873455,100.47680288734607,0.55722101888979447,0.55722101888978348,0.55722101888978592,-1.4234253559203225
0.034999999999999996,100.14227467378511,100.14227467378275,100.14227467378294,0.44140162325648619,0.44140162325647303,0.44140162325647408,-3.1257339734108527
0.035999999999999997,99.709477444138358,99.709477444136112,99.709477444136368,0.32861886461783524,0.32861886461782014,0.32861886461782186,-4.3800849859492663
0.036999999999999998,99.306323360867381,99.306323360864866,99.30632336086498,0.2317013544247023,0.23170135442468284,0.23170135442468373,-5.2082761659659766
0.037999999999999992,98.986438786468923,98.98643878646665,98.98643878646692,0.15830562633982265,0.1583056263398033,0.15830562633980561,-5.7723916935882684
0.038999999999999993,98.745510633097922,98.745510633095492,98.745510633095833,0.11203082387672111,0.11203082387669926,0.11203082387670232,-6.2098769728639347
0.039999999999999994,98.550632287809719,98.550632287807346,98.550632287807758,0.093596463718570083,0.093596463718548253,0.093596463718552042,-6.5857839635091917
0.040999999999999995,98.355084022773482,98.355084022770896,98.355084022771507,0.10231141650238572,0.10231141650236211,0.10231141650236769,-6.8340099337477689
0.041999999999999996,98.111514202722304,98.111514202719647,98.111514202720159,0.13642687301303444,0.13642687301301104,0.13642687301301554,-6.8285251125022013
0.042999999999999997,97.785642732801023,97.785642732798365,97.785642732799047,0.1935738221641885,0.19357382216416658,0.19357382216417221,-6.3531700081117259
0.043999999999999997,97.380903996866508,97.380903996863964,97.380903996865058,0.27055811934114254,0.2705581193411235,0.27055811934113166,-5.2547553937608305
0.044999999999999991,96.965863477756145,96.965863477754013,96.965863477754709,0.36461449518115424,0.36461449518114031,0.36461449518114486,-3.470811516880195
0.045999999999999992,96.686267147443715,96.686267147441555,96.686267147442848,0.47018851615156959,0.47018851615155777,0.47018851615156487,-1.123390137520607
0.046999999999999993,96.733258858745288,96.733258858743341,96.733258858744747,0.5782138215282947,0.57821382152832645,0.57821382152830358,1.4771287197219074
0.047999999999999994,97.267777176549643,97.267777176547881,97.267777176548918,0.67500164723795153,0.67500164723798184,0.67500164723796396,3.8301676656773962
0.048999999999999995,98.312419351640585,98.312419351638738,98.312419351639917,0.74748709853666107,0.74748709853669393,0.74748709853667294,5.4405160198253633
0.049999999999999996,99.685274634496025,99.685274634495073,99.685274634496608,0.78496808462607204,0.78496808462608914,0.7849680846260616,5.8990424570471829
0.050999999999999997,101.03926808483345,101.03926808483195,101.03926808483408,0.78050933289782864,0.78050933289785518,0.78050933289781754,5.021315147893084
0.051999999999999991,102.01099890079145,102.01099890078949,102.0109989007921,0.73423258028956229,0.73423258028959559,0.73423258028955118,3.013185696743677
0.052999999999999992,102.40040232357225,102.40040232356984,102.40040232357325,0.65266628249025205,0.65266628249029102,0.65266628249023595,0.35329141461042646
0.053999999999999992,102.23996513402079,102.23996513401833,102.23996513402196,0.5461970051442373,0.54619700514422631,0.54619700514424241,-2.3348984071725347
0.054999999999999993,101.73839234799397,101.73839234799098,101.73839234799431,0.42693090302532843,0.42693090302531161,0.42693090302533038,-4.5756212429928294
0.055999999999999994,101.1488667073593,101.14886670735636,101.14886670735997,0.30998543525673916,0.30998543525671912,0.30998543525674371,-6.0200828441742491
0.056999999999999995,100.65277486050437,100.65277486050138,100.65277486050475,0.21028025678260528,0.21028025678258189,0.21028025678260831,-6.5895505232319938
0.057999999999999989,100.3099553473502,100.3099553473472,100.30995534735054,0.13866559698756231,0.13866559698753658,0.13866559698756525,-6.4672305735764315
0.05899999999999999,100.0904047252574,100.09040472525439,100.09040472525777,0.098825510132847544,0.098825510132820413,0.098825510132850874,-5.9833989091213704
0.059999999999999991,99.931569383502705,99.931569383499678,99.931569383502918,0.090292747688640915,0.090292747688613353,0.090292747688642844,-5.4317245592924701
0.060999999999999992,99.778469825201441,99.778469825198556,99.778469825201782,0.10874501121108841,0.10874501121106264,0.10874501121109145,-5.0072132116884456
0.061999999999999993,99.591902455120334,99.591902455117491,99.591902455120788,0.14983825111405713,0.14983825111403284,0.14983825111406099,-4.6868000130355272
0.062999999999999987,99.350321661363793,99.35032166136088,99.350321661364021,0.21067870013900228,0.21067870013897913,0.21067870013900408,-4.2819102515562166
0.063999999999999987,99.055032181327121,99.055032181324123,99.055032181327405,0.28772600120490921,0.28772600120488762,0.28772600120491121,-3.6133709373164669
0.064999999999999988,98.748179492541325,98.748179492538299,98.748179492541539,0.37913688147144081,0.37913688147142183,0.3791368814714422,-2.5592279211616322
0.065999999999999989,98.515676270898226,98.515676270895256,98.515676270897828,0.48001228874885771,0.480012288748842,0.4800122887488556,-1.1565005966038573
0.06699999999999999,98.466015544758065,98.46601554475518,98.466015544758164,0.57986263277544625,0.57986263277549255,0.57986263277544459,0.34216732901540814
0.067999999999999991,98.682993915133892,98.682993915131007,98.68299391513419,0.66846014062211545,0.6684601406221643,0.66846014062211045,1.691191893028519
0.068999999999999992,99.172857128146049,99.172857128143335,99.172857128146575,0.73313019832153592,0.73313019832158333,0.7331301983215267,2.5970313100053861
0.069999999999999993,99.829772459612528,99.829772459610069,99.829772459613167,0.76392495743538613,0.76392495743542954,0.76392495743537481,2.8237351205802179
0.070999999999999994,100.46612226101287,100.4661222610091,100.46612226101311,0.75696015598837174,0.75696015598843758,0.75696015598836752,2.3373171497511382
0.071999999999999995,100.89832889846059,100.89832889845754,100.89832889846211,0.71223669360809372,0.71223669360814557,0.71223669360806796,1.2163574450805097
0.072999999999999995,101.02711208110004,101.02711208109729,101.02711208110152,0.63570896587781933,0.63570896587780945,0.63570896587782466,-0.23658760884977958
0.073999999999999996,100.87127721496752,100.87127721496557,100.87127721497045,0.53673410217917528,0.53673410217916628,0.53673410217918871,-1.7087471365517501
0.074999999999999983,100.54239274055949,100.54239274055747,100.54239274056276,0.42780023877092543,0.42780023877091394,0.42780023877094403,-2.9052565467544973
0.075999999999999984,100.17045196645239,100.17045196645007,100.17045196645523,0.32160327868508892,0.32160327868507327,0.32160327868510818,-3.7017348912866286
0.076999999999999985,99.846083613741968,99.846083613739339,99.846083613744327,0.23122793209235898,0.23122793209233872,0.23122793209237713,-4.0960371209478197
0.077999999999999986,99.597858646249023,99.597858646246735,99.597858646251566,0.16394842069619264,0.16394842069617344,0.16394842069621401,-4.2893339950535729
0.078999999999999987,99.410994220870919,99.410994220868986,99.41099422087369,0.12358469769168019,0.12358469769166315,0.12358469769170463,-4.4608395950861492
0.079999999999999988,99.250946255624513,99.25094625562258,99.250946255627326,0.11046145885269061,0.11046145885267329,0.11046145885271583,-4.7537872015237861
0.080999999999999989,99.079020565644015,99.079020565642111,99.079020565646942,0.12231184294402089,0.12231184294400402,0.12231184294404682,-5.1742804338214121
0.08199999999999999,98.855425784675873,98.85542578467377,98.855425784678616,0.15536330188514147,0.15536330188512351,0.15536330188516492,-5.5815484530898356
0.08299999999999999,98.548192402809136,98.548192402807189,98.54819240281212,0.20714905882344839,0.20714905882343271,0.2071490588234724,-5.6709301533478644
0.083999999999999991,98.152500769069448,98.152500769067515,98.152500769072489,0.27654000623712388,0.27654000623710961,0.27654000623714631,-5.1620955930269101
0.084999999999999992,97.714881841876235,97.714881841874856,97.714881841879759,0.36268523862430285,0.36268523862429386,0.36268523862432583,-3.9273496130273369
0.085999999999999993,97.35188260831643,97.35188260831498,97.351882608319769,0.4630326858300417,0.46303268583003371,0.46303268583006013,-2.0207817888436654
0.086999999999999994,97.225724020260898,97.225724020259435,97.225724020264096,0.5670332316619946,0.56703323166201824,0.56703323166194308,0.21063238444305599
0.087999999999999995,97.490208346816956,97.490208346815123,97.490208346820253,0.66254403920737759,0.6625440392074089,0.66254403920732141,2.3394055587752876
0.088999999999999982,98.195362771159012,98.195362771156951,98.195362771162706,0.73628552299020045,0.73628552299023686,0.73628552299013506,3.94589372808943
0.089999999999999983,99.223156119283573,99.22315611928164,99.223156119287822,0.77494708294840087,0.7749470829484354,0.77494708294832482,4.6112873455256054
0.090999999999999984,100.30855558582627,100.30855558582441,100.30855558583148,0.77269454172942842,0.77269454172946128,0.77269454172933616,4.2046428248588583
0.091999999999999985,101.16014750631534,101.16014750631328,101.16014750631967,0.73084256475957776,0.73084256475961307,0.7308425647595036,2.8731273863136373
0.092999999999999985,101.59187110433396,101.59187110433137,101.59187110433702,0.65332005708484853,0.6533200570848906,0.65332005708479879,0.92772900753174348
0.093999999999999986,101.59243570396079,101.59243570395807,101.59243570396336,0.55140945758711701,0.55140945758710502,0.55140945758712834,-1.1405936025375194
0.094999999999999987,101.29497977805899,101.29497977805654,101.29497977806173,0.4371861681959332,0.4371861681959196,0.43718616819594841,-2.9660148714626837
0.095999999999999988,100.87958969931856,100.87958969931591,100.87958969932103,0.32427004987633279,0.32427004987631514,0.32427004987634939,-4.3086281179056529
0.096999999999999989,100.48848296156802,100.48848296156547,100.4884829615698,0.22685879087406233,0.22685879087404265,0.22685879087407598,-5.1138436044335744
0.09799999999999999,100.18489110285577,100.18489110285327,100.18489110285753,0.15354256510340783,0.15354256510338671,0.15354256510342271,-5.5358605792943356
0.098999999999999991,99.965115518185257,99.965115518182685,99.965115518187062,0.10863879159516059,0.10863879159513766,0.10863879159517668,-5.7400536789907974
0.099999999999999992,99.792331142178824,99.792331142176181,99.792331142180331,0.092742562306522905,0.092742562306498882,0.092742562306536602,-5.8862636675870057
0.10099999999999999,99.619210406305413,99.619210406302912,99.619210406307047,0.10435910403853595,0.10435910403851346,0.10435910403855064,-5.9901165380093744
0.10199999999999999,99.400581304506929,99.400581304504158,99.400581304508364,0.139716863170989,0.13971686317096502,0.1397168631710014,-5.9681283960390852
0.10299999999999998,99.108919158771798,99.108919158768984,99.108919158773205,0.19766084302332229,0.1976608430232995,0.19766084302333367,-5.5846022476610226
0.10399999999999998,98.743685262729997,98.743685262727155,98.743685262731717,0.27421329682366713,0.27421329682364626,0.27421329682367979,-4.7080917832342131
0.10499999999999998,98.361319807554565,98.361319807551737,98.361319807556526,0.36703969332521369,0.36703969332519548,0.36703969332522629,-3.2628693417866366
0.10599999999999998,98.079817496109683,98.079817496106912,98.079817496111346,0.47097978990612799,0.47097978990611306,0.47097978990613693,-1.3359042420766274
0.10699999999999998,98.052924555913322,98.052924555910153,98.052924555914657,0.57629536783032409,0.57629536783037505,0.57629536783030255,0.7879182001402687
0.10799999999999998,98.409263081846007,98.409263081843704,98.40926308184774,0.66972223326716451,0.66972223326720359,0.66972223326713509,2.6832434533154874
0.10899999999999999,99.160953860364799,99.160953860362497,99.160953860366121,0.73872507801895415,0.73872507801899456,0.73872507801893095,3.981459809857935
0.10999999999999999,100.16504103883767,100.16504103883567,100.16504103883935,0.77292657375181062,0.77292657375184604,0.77292657375178087,4.3569690153467491
0.11099999999999999,101.15643619948681,101.15643619948412,101.15643619948794,0.76731973872728032,0.76731973872732728,0.76731973872726045,3.7037023773281477
0.11199999999999999,101.86081890498619,101.86081890498394,101.86081890498822,0.72178949533675685,0.72178949533679482,0.72178949533672254,2.1542614395718589
0.11299999999999999,102.12842901909907,102.12842901909666,102.12842901910088,0.64398926518903188,0.64398926518907074,0.64398926518900279,0.12338370771445462
0.11399999999999999,101.97873563083259,101.97873563082985,101.97873563083374,0.54107877855055353,0.54107877855054121,0.54107877855055875,-1.9941615773103099
0.11499999999999999,101.56384416615386,101.56384416615083,101.56384416615452,0.42642180085973336,0.42642180085971626,0.42642180085973713,-3.7782910837318333
0.11599999999999998,101.07550599206803,101.07550599206451,101.07550599206843,0.31448458738434049,0.31448458738431662,0.31448458738434321,-4.9706061596585451
0.11699999999999998,100.65262451887217,100.65262451886896,100.65262451887277,0.21912710881831779,0.21912710881829287,0.21912710881832242,-5.5348496885938063
0.11799999999999998,100.34344964862156,100.34344964861928,100.34344964862287,0.14878941768990603,0.14878941768988674,0.14878941768991713,-5.6409135430244346
0.11899999999999998,100.13019289470176,100.13019289469968,100.1301928947033,0.10857504144903626,0.10857504144901767,0.10857504144904993,-5.5135216883939488
0.11999999999999998,99.964360418440677,99.964360418438517,99.964360418442254,0.096740164060692718,0.096740164060673206,0.096740164060706971,-5.3935345780390609
0.12099999999999998,99.799150346655011,99.799150346653065,99.799150346656333,0.11184487870753969,0.11184487870752237,0.11184487870755146,-5.323784437228344
0.12199999999999998,99.592656120717891,99.592656120715631,99.592656120718999,0.14942828671514255,0.14942828671512326,0.14942828671515201,-5.2650507512544831
0.12299999999999998,99.317893969311186,99.317893969309154,99.317893969312394,0.20648318877546737,0.20648318877545113,0.20648318877547703,-5.0130421340346683
0.12399999999999999,98.975073791950194,98.975073791948262,98.975073791951431,0.28159164800691094,0.28159164800689696,0.28159164800691994,-4.3212894063501777
0.12499999999999999,98.610413333383931,98.610413333382027,98.610413333385281,0.37156916647571453,0.37156916647570243,0.37156916647572313,-3.1268744081179118
